 PRES   HGHT   TEMP   DWPT   RELH   MIXR   DRCT   SKNT   THTA   THTE   THTV
 hPa     m      C      C      %    g/kg    deg   knot     K      K      K
   1003.4     23.0   15.80   15.10 0.0 0.0 0.0 0.0 0.0 0.0 0.0
   1000.4     52.0   15.80   15.10 0.0 0.0 0.0 0.0 0.0 0.0 0.0
   1000.0     55.0   15.80   15.10 0.0 0.0 0.0 0.0 0.0 0.0 0.0
    994.9    102.0   15.50   14.90 0.0 0.0 0.0 0.0 0.0 0.0 0.0
    985.4    185.0   15.40   14.90 0.0 0.0 0.0 0.0 0.0 0.0 0.0
    971.4    306.0   15.60   14.90 0.0 0.0 0.0 0.0 0.0 0.0 0.0
    953.4    464.0   15.40   14.40 0.0 0.0 0.0 0.0 0.0 0.0 0.0
    931.8    655.0   15.40   14.00 0.0 0.0 0.0 0.0 0.0 0.0 0.0
    925.0    717.0   15.30   14.30 0.0 0.0 0.0 0.0 0.0 0.0 0.0
    908.3    873.0   15.20   14.90 0.0 0.0 0.0 0.0 0.0 0.0 0.0
    882.8   1117.0   13.90   14.00 0.0 0.0 0.0 0.0 0.0 0.0 0.0
    854.3   1394.0   12.50   11.30 0.0 0.0 0.0 0.0 0.0 0.0 0.0
    850.0   1436.0   12.30   11.20 0.0 0.0 0.0 0.0 0.0 0.0 0.0
    822.8   1710.0   10.90   10.70 0.0 0.0 0.0 0.0 0.0 0.0 0.0
    788.3   2068.0    9.10    9.10 0.0 0.0 0.0 0.0 0.0 0.0 0.0
    750.8   2471.0    6.40    5.80 0.0 0.0 0.0 0.0 0.0 0.0 0.0
    710.4   2924.0    3.30    1.00 0.0 0.0 0.0 0.0 0.0 0.0 0.0
    700.0   3042.0    2.60    0.00 0.0 0.0 0.0 0.0 0.0 0.0 0.0
    667.0   3433.0    0.20   -3.10 0.0 0.0 0.0 0.0 0.0 0.0 0.0
    620.7   4006.0   -3.70   -6.00 0.0 0.0 0.0 0.0 0.0 0.0 0.0
    572.0   4635.0   -7.70   -9.20 0.0 0.0 0.0 0.0 0.0 0.0 0.0
    524.8   5288.0  -11.50  -14.30 0.0 0.0 0.0 0.0 0.0 0.0 0.0
    500.0   5655.0  -13.30  -15.30 0.0 0.0 0.0 0.0 0.0 0.0 0.0
    482.3   5930.0  -14.60  -16.10 0.0 0.0 0.0 0.0 0.0 0.0 0.0
    444.4   6548.0  -17.80  -19.50 0.0 0.0 0.0 0.0 0.0 0.0 0.0
    410.2   7144.0  -20.50  -22.60 0.0 0.0 0.0 0.0 0.0 0.0 0.0
    400.0   7328.0  -21.50  -23.80 0.0 0.0 0.0 0.0 0.0 0.0 0.0
    379.3   7718.0  -23.70  -26.30 0.0 0.0 0.0 0.0 0.0 0.0 0.0
    351.6   8269.0  -27.60  -30.80 0.0 0.0 0.0 0.0 0.0 0.0 0.0
    326.6   8794.0  -32.10  -36.20 0.0 0.0 0.0 0.0 0.0 0.0 0.0
    304.1   9292.0  -36.60  -41.90 0.0 0.0 0.0 0.0 0.0 0.0 0.0
    300.0   9384.0  -37.40  -43.10 0.0 0.0 0.0 0.0 0.0 0.0 0.0
    283.9   9764.0  -40.70  -47.80 0.0 0.0 0.0 0.0 0.0 0.0 0.0
    265.7  10214.0  -44.10  -53.60 0.0 0.0 0.0 0.0 0.0 0.0 0.0
    250.0  10615.0  -47.10  -58.00 0.0 0.0 0.0 0.0 0.0 0.0 0.0
    248.8  10648.0  -47.30  -58.30 0.0 0.0 0.0 0.0 0.0 0.0 0.0
    233.6  11064.0  -50.60  -59.80 0.0 0.0 0.0 0.0 0.0 0.0 0.0
    219.6  11471.0  -54.20  -59.80 0.0 0.0 0.0 0.0 0.0 0.0 0.0
    205.7  11889.0  -57.00  -63.50 0.0 0.0 0.0 0.0 0.0 0.0 0.0
    191.7  12332.0  -58.90  -68.60 0.0 0.0 0.0 0.0 0.0 0.0 0.0
    177.8  12805.0  -60.10  -72.60 0.0 0.0 0.0 0.0 0.0 0.0 0.0
    163.8  13313.0  -61.50  -77.50 0.0 0.0 0.0 0.0 0.0 0.0 0.0
    150.0  13857.0  -61.90  -81.00 0.0 0.0 0.0 0.0 0.0 0.0 0.0
    149.8  13865.0  -61.90  -81.10 0.0 0.0 0.0 0.0 0.0 0.0 0.0
    135.9  14468.0  -63.60  -83.20 0.0 0.0 0.0 0.0 0.0 0.0 0.0
    121.9  15131.0  -65.60  -85.00 0.0 0.0 0.0 0.0 0.0 0.0 0.0
