 PRES   HGHT   TEMP   DWPT   RELH   MIXR   DRCT   SKNT   THTA   THTE   THTV
 hPa     m      C      C      %    g/kg    deg   knot     K      K      K
   1019.4     19.0   29.00   24.60 0.0 0.0 0.0 0.0 0.0 0.0 0.0
   1016.3     49.0   28.70   24.30 0.0 0.0 0.0 0.0 0.0 0.0 0.0
   1010.7    102.0   28.20   24.10 0.0 0.0 0.0 0.0 0.0 0.0 0.0
   1000.9    190.0   27.20   23.90 0.0 0.0 0.0 0.0 0.0 0.0 0.0
   1000.0    197.0   27.10   23.90 0.0 0.0 0.0 0.0 0.0 0.0 0.0
    986.6    317.0   26.00   23.60 0.0 0.0 0.0 0.0 0.0 0.0 0.0
    968.1    483.0   24.30   23.00 0.0 0.0 0.0 0.0 0.0 0.0 0.0
    946.0    682.0   22.30   21.70 0.0 0.0 0.0 0.0 0.0 0.0 0.0
    925.0    877.0   20.70   20.60 0.0 0.0 0.0 0.0 0.0 0.0 0.0
    921.9    907.0   20.50   20.40 0.0 0.0 0.0 0.0 0.0 0.0 0.0
    895.7   1159.0   19.10   16.40 0.0 0.0 0.0 0.0 0.0 0.0 0.0
    866.5   1444.0   17.00   15.30 0.0 0.0 0.0 0.0 0.0 0.0 0.0
    850.0   1607.0   16.30   13.70 0.0 0.0 0.0 0.0 0.0 0.0 0.0
    834.2   1768.0   15.60   12.10 0.0 0.0 0.0 0.0 0.0 0.0 0.0
    798.9   2136.0   14.70    8.40 0.0 0.0 0.0 0.0 0.0 0.0 0.0
    760.6   2552.0   13.00    6.00 0.0 0.0 0.0 0.0 0.0 0.0 0.0
    719.2   3023.0   11.20    4.90 0.0 0.0 0.0 0.0 0.0 0.0 0.0
    700.0   3247.0    9.80    4.50 0.0 0.0 0.0 0.0 0.0 0.0 0.0
    674.7   3555.0    7.90    3.90 0.0 0.0 0.0 0.0 0.0 0.0 0.0
    627.2   4153.0    3.80    1.70 0.0 0.0 0.0 0.0 0.0 0.0 0.0
    577.2   4811.0   -0.20   -3.30 0.0 0.0 0.0 0.0 0.0 0.0 0.0
    528.9   5494.0   -3.20   -7.20 0.0 0.0 0.0 0.0 0.0 0.0 0.0
    500.0   5935.0   -5.60   -9.60 0.0 0.0 0.0 0.0 0.0 0.0 0.0
    485.5   6166.0   -6.80  -10.90 0.0 0.0 0.0 0.0 0.0 0.0 0.0
    446.8   6811.0  -10.20  -17.20 0.0 0.0 0.0 0.0 0.0 0.0 0.0
    412.1   7431.0  -14.20  -19.90 0.0 0.0 0.0 0.0 0.0 0.0 0.0
    400.0   7654.0  -15.70  -20.80 0.0 0.0 0.0 0.0 0.0 0.0 0.0
    380.7   8026.0  -18.20  -22.40 0.0 0.0 0.0 0.0 0.0 0.0 0.0
    352.6   8595.0  -22.10  -24.80 0.0 0.0 0.0 0.0 0.0 0.0 0.0
    327.3   9138.0  -26.00  -28.60 0.0 0.0 0.0 0.0 0.0 0.0 0.0
    304.6   9654.0  -30.10  -33.10 0.0 0.0 0.0 0.0 0.0 0.0 0.0
    300.0   9760.0  -31.00  -34.00 0.0 0.0 0.0 0.0 0.0 0.0 0.0
    284.2  10143.0  -34.00  -37.00 0.0 0.0 0.0 0.0 0.0 0.0 0.0
    265.9  10608.0  -37.60  -40.80 0.0 0.0 0.0 0.0 0.0 0.0 0.0
    250.0  11026.0  -41.10  -44.80 0.0 0.0 0.0 0.0 0.0 0.0 0.0
    248.9  11056.0  -41.30  -45.10 0.0 0.0 0.0 0.0 0.0 0.0 0.0
    233.6  11485.0  -44.70  -50.10 0.0 0.0 0.0 0.0 0.0 0.0 0.0
    219.6  11904.0  -48.00  -54.60 0.0 0.0 0.0 0.0 0.0 0.0 0.0
    205.7  12333.0  -51.60  -58.90 0.0 0.0 0.0 0.0 0.0 0.0 0.0
    191.7  12785.0  -55.80  -61.10 0.0 0.0 0.0 0.0 0.0 0.0 0.0
    177.8  13261.0  -59.80  -64.60 0.0 0.0 0.0 0.0 0.0 0.0 0.0
    163.8  13768.0  -63.60  -67.90 0.0 0.0 0.0 0.0 0.0 0.0 0.0
    150.0  14302.0  -66.90  -71.20 0.0 0.0 0.0 0.0 0.0 0.0 0.0
    149.8  14310.0  -67.00  -71.20 0.0 0.0 0.0 0.0 0.0 0.0 0.0
    135.9  14898.0  -69.00  -74.00 0.0 0.0 0.0 0.0 0.0 0.0 0.0
    121.9  15546.0  -69.70  -77.90 0.0 0.0 0.0 0.0 0.0 0.0 0.0
